# Example potential for Mechanics 1 problem sheet
# Created by lw2214
# n.b. lines starting with a # sign will be ignored by sp.loadtxt
#         x                        y
0.000000000000000000e+00 1.049457378029292443e+02
5.050505050505050414e-02 1.005366077879086504e+02
1.010101010101010083e-01 9.611421725559738150e+01
1.515151515151515194e-01 9.168741227646782477e+01
2.020202020202020166e-01 8.726503892099239579e+01
2.525252525252525415e-01 8.285594325964355278e+01
3.030303030303030387e-01 7.846897136289375396e+01
3.535353535353535359e-01 7.411296930121538651e+01
4.040404040404040331e-01 6.979678314508093706e+01
4.545454545454545303e-01 6.552925896496277858e+01
5.050505050505050830e-01 6.131924283133341191e+01
5.555555555555555802e-01 5.717558081466525266e+01
6.060606060606060774e-01 5.310711898543073062e+01
6.565656565656565746e-01 4.912270341410224717e+01
7.070707070707070718e-01 4.523118017115226053e+01
7.575757575757575690e-01 4.144139532705324314e+01
8.080808080808080662e-01 3.776219495227759637e+01
8.585858585858585634e-01 3.420242511729773582e+01
9.090909090909090606e-01 3.077093189258613037e+01
9.595959595959595578e-01 2.747656134861521693e+01
1.010101010101010166e+00 2.432815955585739687e+01
1.060606060606060552e+00 2.133457258478514618e+01
1.111111111111111160e+00 1.850464650587085913e+01
1.161616161616161547e+00 1.584722738958700816e+01
1.212121212121212155e+00 1.337116130640599820e+01
1.262626262626262541e+00 1.108529432680029458e+01
1.313131313131313149e+00 8.998472521242304012e+00
1.363636363636363535e+00 7.119541960204477604e+00
1.414141414141414144e+00 5.457348714159236280e+00
1.464646464646464530e+00 4.020738853579036487e+00
1.515151515151515138e+00 2.818558448936293814e+00
1.565656565656565524e+00 1.859653570703468262e+00
1.616161616161616132e+00 1.152870289352955879e+00
1.666666666666666741e+00 7.070546753572308774e-01
1.717171717171717127e+00 5.310527991887035171e-01
1.767676767676767735e+00 6.337107313198160341e-01
1.818181818181818121e+00 1.023874542223001782e+00
1.868686868686868729e+00 1.710390302370708326e+00
1.919191919191919116e+00 2.702104082235358362e+00
1.969696969696969724e+00 4.007861952289385243e+00
2.020202020202020332e+00 5.636026283307169926e+00
2.070707070707070496e+00 7.576155620300768057e+00
2.121212121212121104e+00 9.793381673529946596e+00
2.171717171717171713e+00 1.225120366677349182e+01
2.222222222222222321e+00 1.491312082381020154e+01
2.272727272727272485e+00 1.774263236841882474e+01
2.323232323232323093e+00 2.070323752437820986e+01
2.373737373737373701e+00 2.375843551546709520e+01
2.424242424242424310e+00 2.687172556546429547e+01
2.474747474747474918e+00 3.000660689814857562e+01
2.525252525252525082e+00 3.312657873729870772e+01
2.575757575757575690e+00 3.619514030669354554e+01
2.626262626262626299e+00 3.917579083011180785e+01
2.676767676767676907e+00 4.203202953133232711e+01
2.727272727272727071e+00 4.472735563413384341e+01
2.777777777777777679e+00 4.722526836229518210e+01
2.828282828282828287e+00 4.948926693959512590e+01
2.878787878787878896e+00 5.148285058981244333e+01
2.929292929292929060e+00 5.316951853672594552e+01
2.979797979797979668e+00 5.451277000411440099e+01
3.030303030303030276e+00 5.547818192582330710e+01
3.080808080808080884e+00 5.606241993447379457e+01
3.131313131313131048e+00 5.628608180456627963e+01
3.181818181818181657e+00 5.617038092839881358e+01
3.232323232323232265e+00 5.573653069826927720e+01
3.282828282828282873e+00 5.500574450647569336e+01
3.333333333333333481e+00 5.399923574531605652e+01
3.383838383838383645e+00 5.273821780708831852e+01
3.434343434343434254e+00 5.124390408409045961e+01
3.484848484848484862e+00 4.953750796862043160e+01
3.535353535353535470e+00 4.764024285297622896e+01
3.585858585858585634e+00 4.557332212945586036e+01
3.636363636363636243e+00 4.335795919035723500e+01
3.686868686868686851e+00 4.101536742797837576e+01
3.737373737373737459e+00 3.856676023461724867e+01
3.787878787878787623e+00 3.603335100257184820e+01
3.838383838383838231e+00 3.343635312414009775e+01
3.888888888888888840e+00 3.079697999162000244e+01
3.939393939393939448e+00 2.813644499730952830e+01
3.989898989898989612e+00 2.547596153350669113e+01
4.040404040404040664e+00 2.283674299250940010e+01
4.090909090909090828e+00 2.024000276661569586e+01
4.141414141414140992e+00 1.770695424812353735e+01
4.191919191919192045e+00 1.525881082933083910e+01
4.242424242424242209e+00 1.291678590253566661e+01
4.292929292929293261e+00 1.070209286003591664e+01
4.343434343434343425e+00 8.635945094129633404e+00
4.393939393939393590e+00 6.739555997114766939e+00
4.444444444444444642e+00 5.034138961289247760e+00
4.494949494949494806e+00 3.540907378951120066e+00
4.545454545454544970e+00 2.281074642398328578e+00
4.595959595959596022e+00 1.275854143928831341e+00
4.646464646464646187e+00 5.464592758406361384e-01
4.696969696969697239e+00 1.141034304316947967e-01
